MicroEMSIM Tool Vibration Data: theta(degree) dx(um) dy(um)
VibToolData
0	-0.108652	0.257336
1	-0.111034	0.21762
2	-0.11094	0.173687
3	-0.108961	0.127503
4	-0.106075	0.0815187
5	-0.103475	0.0383093
6	-0.102487	0.000430482
7	-0.10441	-0.0298709
8	-0.110319	-0.0509428
9	-0.12095	-0.0618616
10	-0.136805	-0.0621769
11	-0.158179	-0.0518258
12	-0.18517	-0.0311008
13	-0.217678	-0.000615565
14	-0.255428	0.0387307
15	-0.297975	0.0857913
16	-0.34473	0.139214
17	-0.394979	0.197485
18	-0.447909	0.258973
19	-0.502627	0.321973
20	-0.558182	0.384755
21	-0.613583	0.4456
22	-0.667836	0.502854
23	-0.719968	0.55496
24	-0.76904	0.600501
25	-0.814198	0.638231
26	-0.854667	0.667104
27	-0.889807	0.686302
28	-0.919092	0.695245
29	-0.942166	0.693604
30	-0.958831	0.681305
31	-0.969027	0.658522
32	-0.972877	0.625675
33	-0.970697	0.583404
34	-0.962979	0.532557
35	-0.95037	0.474161
36	-0.933644	0.409389
37	-0.913669	0.339537
38	-0.891375	0.265984
39	-0.867732	0.190161
40	-0.843718	0.113517
41	-0.820289	0.0374823
42	-0.798357	-0.0365625
43	-0.77876	-0.107317
44	-0.762244	-0.17359
45	-0.749437	-0.234324
46	-0.74084	-0.288616
47	-0.736811	-0.335734
48	-0.73756	-0.375132
49	-0.743144	-0.406456
50	-0.753469	-0.429549
51	-0.768297	-0.444449
52	-0.787251	-0.451385
53	-0.809833	-0.450767
54	-0.835439	-0.443171
55	-0.863375	-0.429325
56	-0.892881	-0.41009
57	-0.923155	-0.386433
58	-0.953369	-0.359408
59	-0.982701	-0.330126
60	-1.01035	-0.299732
61	-1.03557	-0.269377
62	-1.05767	-0.240192
63	-1.07605	-0.21326
64	-1.09021	-0.189598
65	-1.09976	-0.170129
66	-1.10441	-0.155669
67	-1.10404	-0.146901
68	-1.0986	-0.144371
69	-1.08822	-0.148471
70	-1.0731	-0.159437
71	-1.05357	-0.17734
72	-1.03008	-0.202093
73	-1.00312	-0.233447
74	-0.973303	-0.271006
75	-0.941252	-0.314234
76	-0.907645	-0.362465
77	-0.873173	-0.414925
78	-0.838525	-0.470748
79	-0.804369	-0.528995
80	-0.771337	-0.588675
81	-0.740007	-0.648772
82	-0.710894	-0.708263
83	-0.68443	-0.766142
84	-0.660966	-0.821447
85	-0.640754	-0.873275
86	-0.623953	-0.920806
87	-0.61062	-0.963321
88	-0.600715	-1.00021
89	-0.594102	-1.03101
90	-0.590558	-1.05536
91	-0.589777	-1.07307
92	-0.591383	-1.0841
93	-0.594941	-1.08853
94	-0.59997	-1.0866
95	-0.605953	-1.07869
96	-0.612356	-1.06531
97	-0.61864	-1.04706
98	-0.624274	-1.02467
99	-0.628749	-0.998925
100	-0.631593	-0.970692
101	-0.632377	-0.940871
102	-0.630729	-0.910383
103	-0.62634	-0.880148
104	-0.618973	-0.851061
105	-0.608462	-0.823975
106	-0.594722	-0.799674
107	-0.577744	-0.778862
108	-0.557597	-0.762142
109	-0.534421	-0.750003
110	-0.508429	-0.74281
111	-0.479893	-0.740795
112	-0.449141	-0.744049
113	-0.416549	-0.752529
114	-0.382529	-0.766052
115	-0.34752	-0.784301
116	-0.311976	-0.806839
117	-0.276357	-0.833115
118	-0.241119	-0.862481
119	-0.2067	-0.894208
120	-0.173516	-0.927503
121	-0.141946	-0.961533
122	-0.112329	-0.995442
123	-0.0849536	-1.02837
124	-0.0600538	-1.0595
125	-0.0378052	-1.08801
126	-0.0183211	-1.1132
127	-0.00165142	-1.13439
128	0.0122175	-1.15105
129	0.0233615	-1.16272
130	0.0319159	-1.16909
131	0.038071	-1.16994
132	0.0420672	-1.16521
133	0.0441884	-1.15496
134	0.0447549	-1.13939
135	0.044115	-1.11881
136	0.0426368	-1.09365
137	0.0406989	-1.06445
138	0.0386814	-1.03181
139	0.0369569	-0.996446
140	0.0358816	-0.95909
141	0.0357867	-0.920526
142	0.036971	-0.881548
143	0.0396935	-0.842947
144	0.0441675	-0.805485
145	0.0505554	-0.769882
146	0.0589652	-0.736794
147	0.0694479	-0.706801
148	0.0819961	-0.680389
149	0.0965443	-0.657942
150	0.112971	-0.639731
151	0.1311	-0.625912
152	0.150707	-0.61652
153	0.171533	-0.611484
154	0.193291	-0.610632
155	0.215675	-0.613694
156	0.238361	-0.620304
157	0.260988	-0.629984
158	0.28319	-0.642177
159	0.304596	-0.65626
160	0.324849	-0.671571
161	0.343606	-0.687412
162	0.36052	-0.703045
163	0.375253	-0.717712
164	0.387487	-0.730666
165	0.396935	-0.741187
166	0.403357	-0.748613
167	0.406562	-0.752356
168	0.406409	-0.751903
169	0.402808	-0.746832
170	0.395728	-0.736818
171	0.385196	-0.721636
172	0.371297	-0.701163
173	0.354173	-0.675372
174	0.33401	-0.644327
175	0.311033	-0.608168
176	0.28545	-0.566996
177	0.257425	-0.520811
178	0.227111	-0.469625
179	0.194696	-0.413553
180	0.160438	-0.352891
181	0.124681	-0.288152
182	0.0878495	-0.220042
183	0.0504329	-0.149446
184	0.0129825	-0.0774111
185	-0.0238564	-0.00522123
186	-0.0593712	0.065673
187	-0.092819	0.133737
188	-0.12344	0.197401
189	-0.150565	0.255234
190	-0.173599	0.305935
191	-0.192047	0.34839
192	-0.205508	0.381666
193	-0.213773	0.405154
194	-0.216726	0.418447
195	-0.214385	0.421393
196	-0.206893	0.414089
197	-0.194518	0.396884
198	-0.177661	0.370376
199	-0.156871	0.335419
200	-0.132966	0.293206
201	-0.107223	0.2454
202	-0.0816094	0.194287
203	-0.0585921	0.142543
204	-0.0405752	0.0927147
205	-0.0293857	0.0467613
206	-0.026216	0.00606164
207	-0.0318323	-0.028353
208	-0.0466443	-0.0557214
209	-0.0707126	-0.0755411
210	-0.103764	-0.0875568
211	-0.145212	-0.0917479
212	-0.194187	-0.0883127
213	-0.249568	-0.0776514
214	-0.310024	-0.0603462
215	-0.374056	-0.0371391
216	-0.440045	-0.00890769
217	-0.506303	0.023361
218	-0.571125	0.0585982
219	-0.632838	0.0956823
220	-0.689859	0.133468
221	-0.740743	0.170817
222	-0.78423	0.206622
223	-0.819292	0.23984
224	-0.845164	0.269508
225	-0.861374	0.294772
226	-0.867759	0.314896
227	-0.864471	0.329277
228	-0.851966	0.337454
229	-0.830988	0.339104
230	-0.802531	0.334051
231	-0.767803	0.322255
232	-0.728175	0.303811
233	-0.685131	0.278939
234	-0.640214	0.247982
235	-0.59498	0.211393
236	-0.550956	0.16973
237	-0.509597	0.123644
238	-0.472251	0.0738651
239	-0.440117	0.0211889
240	-0.414215	-0.0335378
241	-0.395359	-0.0894343
242	-0.384138	-0.145603
243	-0.380902	-0.201144
244	-0.385757	-0.255177
245	-0.398562	-0.306854
246	-0.418942	-0.355376
247	-0.446299	-0.400013
248	-0.479833	-0.440111
249	-0.518565	-0.475114
250	-0.56137	-0.504567
251	-0.607013	-0.528134
252	-0.654175	-0.545598
253	-0.701504	-0.556872
254	-0.747643	-0.561999
255	-0.791273	-0.561152
256	-0.831147	-0.554634
257	-0.866125	-0.54287
258	-0.895206	-0.526403
259	-0.917548	-0.505879
260	-0.932498	-0.482038
261	-0.9396	-0.455699
262	-0.938609	-0.427741
263	-0.929495	-0.399083
264	-0.912437	-0.370669
265	-0.887819	-0.343441
266	-0.856215	-0.318321
267	-0.818368	-0.296187
268	-0.775167	-0.27785
269	-0.727622	-0.264038
270	-0.676836	-0.255371
271	-0.623965	-0.252348
272	-0.570196	-0.255332
273	-0.516709	-0.264535
274	-0.464647	-0.280016
275	-0.415087	-0.301672
276	-0.369013	-0.329238
277	-0.327295	-0.362297
278	-0.290666	-0.400282
279	-0.25971	-0.442492
280	-0.234848	-0.488109
281	-0.216332	-0.536215
282	-0.204245	-0.585811
283	-0.198499	-0.635845
284	-0.198844	-0.685233
285	-0.204878	-0.732892
286	-0.216061	-0.777763
287	-0.231734	-0.818841
288	-0.251135	-0.8552
289	-0.273426	-0.886018
290	-0.297711	-0.910599
291	-0.323063	-0.928391
292	-0.348547	-0.939005
293	-0.373244	-0.942223
294	-0.396275	-0.938006
295	-0.416819	-0.926498
296	-0.434134	-0.908024
297	-0.447576	-0.88308
298	-0.456607	-0.852325
299	-0.460809	-0.816565
300	-0.459892	-0.776729
301	-0.453697	-0.733849
302	-0.442198	-0.689032
303	-0.425496	-0.64343
304	-0.403818	-0.59821
305	-0.377505	-0.554524
306	-0.347005	-0.513474
307	-0.312857	-0.476085
308	-0.275677	-0.443275
309	-0.236146	-0.415832
310	-0.194987	-0.394389
311	-0.152952	-0.379409
312	-0.110807	-0.371171
313	-0.0693073	-0.369763
314	-0.0291889	-0.375079
315	0.00885169	-0.386821
316	0.0441701	-0.404509
317	0.0761878	-0.427493
318	0.104403	-0.454969
319	0.1284	-0.486005
320	0.147859	-0.519561
321	0.162556	-0.554519
322	0.172375	-0.589712
323	0.177303	-0.62395
324	0.177433	-0.656052
325	0.172957	-0.684865
326	0.164163	-0.709294
327	0.15143	-0.72833
328	0.135212	-0.741073
329	0.116033	-0.746762
330	0.0944693	-0.744797
331	0.0711405	-0.734755
332	0.0466936	-0.716347
333	0.0217914	-0.689342
334	-0.00290973	-0.653663
335	-0.0267783	-0.609486
336	-0.049219	-0.557256
337	-0.0696854	-0.497739
338	-0.0876886	-0.431956
339	-0.102806	-0.361169
340	-0.114689	-0.286858
341	-0.123067	-0.210653
342	-0.127755	-0.134272
343	-0.128658	-0.0594447
344	-0.125774	0.0121469
345	-0.119197	0.0789389
346	-0.109124	0.139542
347	-0.095848	0.192794
348	-0.0797621	0.237798
349	-0.0613494	0.273935
350	-0.0411731	0.300882
351	-0.0198539	0.318571
352	0.0019511	0.327176
353	0.0235847	0.327043
354	0.0444191	0.318645
355	0.0638848	0.302543
356	0.0814949	0.279353
357	0.0968436	0.24978
358	0.109595	0.214648
359	0.119459	0.174942
360	0.126054	0.132021
361	0.129012	0.0874047
362	0.127876	0.0428986
363	0.122047	0.00060556
364	0.11089	-0.0373267
365	0.0937699	-0.0688034
366	0.0701278	-0.0919545
367	0.0395148	-0.105211
368	0.00172707	-0.107532
369	-0.0430953	-0.0985496
370	-0.0945825	-0.0783276
371	-0.152167	-0.0473072
372	-0.215107	-0.00626886
373	-0.282508	0.043707
374	-0.353355	0.101284
375	-0.42654	0.164917
376	-0.500897	0.2329
377	-0.575225	0.303418
378	-0.648308	0.374592
379	-0.718892	0.444521
380	-0.785665	0.511324
381	-0.847249	0.573187
382	-0.902276	0.62842
383	-0.949509	0.675516
384	-0.987874	0.713179
385	-1.01665	0.740383
386	-1.03544	0.756382
387	-1.04418	0.760716
388	-1.04308	0.753209
389	-1.03266	0.733973
390	-1.01371	0.703389
391	-0.987273	0.662092
392	-0.954599	0.610947
393	-0.917118	0.551023
394	-0.876385	0.483557
395	-0.834031	0.409923
396	-0.791714	0.331593
397	-0.751064	0.250105
398	-0.713639	0.167021
399	-0.68087	0.0838937
400	-0.654026	0.00223447
401	-0.634173	-0.0765215
402	-0.622145	-0.151042
403	-0.618522	-0.220125
404	-0.623612	-0.282719
405	-0.637451	-0.337945
406	-0.659798	-0.385103
407	-0.690148	-0.423693
408	-0.72775	-0.45341
409	-0.771631	-0.474152
410	-0.820622	-0.486015
411	-0.873401	-0.489286
412	-0.92853	-0.484435
413	-0.984498	-0.472099
414	-1.03976	-0.453067
415	-1.09281	-0.428261
416	-1.14217	-0.398715
417	-1.1865	-0.365552
418	-1.22457	-0.329959
419	-1.25536	-0.293161
420	-1.27801	-0.256401
421	-1.29194	-0.220907
422	-1.29678	-0.187875
423	-1.2924	-0.158437
424	-1.27895	-0.133646
425	-1.2568	-0.11445
426	-1.22657	-0.101675
427	-1.18906	-0.0960072
428	-1.14528	-0.0979793
429	-1.09637	-0.107959
430	-1.0436	-0.126139
431	-0.988317	-0.152534
432	-0.931887	-0.18698
433	-0.875692	-0.22913
434	-0.821065	-0.278468
435	-0.769266	-0.334312
436	-0.72144	-0.39583
437	-0.678593	-0.462053
438	-0.641565	-0.531898
439	-0.611009	-0.604188
440	-0.587381	-0.677679
441	-0.570927	-0.751084
442	-0.561684	-0.823101
443	-0.559481	-0.892444
444	-0.563952	-0.95787
445	-0.574548	-1.01821
446	-0.590555	-1.0724
447	-0.611122	-1.11949
448	-0.635281	-1.15868
449	-0.661982	-1.18937
450	-0.690117	-1.2111
451	-0.718557	-1.22364
452	-0.746177	-1.22695
453	-0.771891	-1.22121
454	-0.794679	-1.20679
455	-0.813608	-1.18428
456	-0.827864	-1.15445
457	-0.836762	-1.11825
458	-0.839767	-1.07676
459	-0.836501	-1.03122
460	-0.826752	-0.982941
461	-0.810473	-0.933329
462	-0.787782	-0.883807
463	-0.75895	-0.835801
464	-0.724397	-0.790701
465	-0.684669	-0.749826
466	-0.64043	-0.714386
467	-0.592435	-0.685453
468	-0.541512	-0.663931
469	-0.488539	-0.650531
470	-0.434423	-0.645749
471	-0.380075	-0.649856
472	-0.326387	-0.662881
473	-0.274217	-0.684617
474	-0.224363	-0.714617
475	-0.177553	-0.75221
476	-0.134423	-0.796512
477	-0.095512	-0.846452
478	-0.0612474	-0.900797
479	-0.0319414	-0.958183
480	-0.00778647	-1.01715
481	0.0111457	-1.07619
482	0.0249018	-1.13376
483	0.0336432	-1.18835
484	0.0376384	-1.23852
485	0.037255	-1.28291
486	0.0329483	-1.32033
487	0.0252497	-1.34972
488	0.0147532	-1.37026
489	0.00210071	-1.3813
490	-0.0120322	-1.38248
491	-0.0269521	-1.37366
492	-0.0419628	-1.35496
493	-0.0563798	-1.32675
494	-0.0695453	-1.28964
495	-0.0808406	-1.24447
496	-0.0896995	-1.19227
497	-0.0956184	-1.13428
498	-0.0981669	-1.07184
499	-0.0969953	-1.00643
500	-0.0918419	-0.939589
501	-0.0825375	-0.872879
502	-0.0690088	-0.807849
503	-0.0512801	-0.745989
504	-0.0294729	-0.688693
505	-0.00380376	-0.637217
506	0.0254194	-0.592651
507	0.0578029	-0.555884
508	0.0928747	-0.527587
509	0.130093	-0.508191
510	0.168858	-0.497881
511	0.208521	-0.496589
512	0.2484	-0.503998
513	0.287825	-0.519597
514	0.326116	-0.542643
515	0.362608	-0.572204
516	0.396645	-0.607154
517	0.427585	-0.646203
518	0.45484	-0.687953
519	0.477899	-0.730955
520	0.496314	-0.773715
521	0.509714	-0.814731
522	0.517829	-0.852563
523	0.520508	-0.885866
524	0.517712	-0.913424
525	0.509523	-0.934181
526	0.496136	-0.94726
527	0.477863	-0.951994
528	0.455128	-0.94794
529	0.428454	-0.934886
530	0.398454	-0.912857
531	0.365827	-0.882115
532	0.331324	-0.843144
533	0.295724	-0.796612
534	0.2598	-0.743343
535	0.224299	-0.684295
536	0.189916	-0.620516
537	0.157248	-0.553092
538	0.126806	-0.483146
539	0.0990301	-0.411844
540	0.0741308	-0.340125
541	0.0520545	-0.268611
542	0.032561	-0.197735
543	0.0153336	-0.1279
544	4.56393e-005	-0.0595556
545	-0.0136351	0.00682356
546	-0.0260045	0.0707027
547	-0.0372266	0.131315
548	-0.0472997	0.187652
549	-0.0560611	0.238516
550	-0.063321	0.282768
551	-0.0689284	0.319445
552	-0.0727748	0.347785
553	-0.0747962	0.367239
554	-0.0749737	0.377483
555	-0.0733334	0.37842
556	-0.0699493	0.370185
557	-0.0649581	0.353155
558	-0.0585978	0.327967
559	-0.0513638	0.295641
560	-0.0441719	0.257683
561	-0.0385565	0.216211
562	-0.0363767	0.173633
563	-0.0393736	0.13221
564	-0.0487377	0.0936606
565	-0.0650971	0.0592007
566	-0.0886774	0.0297188
567	-0.119397	0.00587345
568	-0.156886	-0.0118953
569	-0.200511	-0.0233555
570	-0.249401	-0.0284712
571	-0.302485	-0.0273896
572	-0.35853	-0.0204264
573	-0.416179	-0.00804916
574	-0.473995	0.0091416
575	-0.530513	0.0304324
576	-0.584281	0.0550195
577	-0.633909	0.0820324
578	-0.67812	0.110559
579	-0.715793	0.139669
580	-0.746005	0.168443
581	-0.768069	0.195991
582	-0.781562	0.221477
583	-0.786351	0.244137
584	-0.782593	0.26329
585	-0.770737	0.278353
586	-0.751505	0.288842
587	-0.72586	0.294377
588	-0.694968	0.29468
589	-0.660147	0.289577
590	-0.622815	0.278991
591	-0.584434	0.262947
592	-0.546459	0.241563
593	-0.510294	0.215055
594	-0.477255	0.183735
595	-0.448539	0.148003
596	-0.42519	0.108344
597	-0.408069	0.0653222
598	-0.397837	0.0195661
599	-0.394926	-0.0282377
600	-0.399542	-0.0773584
601	-0.411651	-0.127034
602	-0.430989	-0.176487
603	-0.457068	-0.224936
604	-0.489197	-0.271617
605	-0.5265	-0.315792
606	-0.567946	-0.356772
607	-0.612376	-0.393926
608	-0.658544	-0.426701
609	-0.705145	-0.454632
610	-0.75086	-0.477352
611	-0.794391	-0.494609
612	-0.834496	-0.506265
613	-0.870027	-0.512309
614	-0.899961	-0.512856
615	-0.923429	-0.508151
616	-0.939738	-0.49856
617	-0.94839	-0.484572
618	-0.949096	-0.466787
619	-0.941784	-0.445903
620	-0.926594	-0.422705
621	-0.903878	-0.398046
622	-0.874182	-0.37283
623	-0.838232	-0.347986
624	-0.79691	-0.324451
625	-0.751225	-0.303141
626	-0.702282	-0.284929
627	-0.651254	-0.270622
628	-0.599339	-0.260934
629	-0.547735	-0.256468
630	-0.497601	-0.257697
631	-0.450028	-0.264945
632	-0.406012	-0.278379
633	-0.366424	-0.297998
634	-0.331997	-0.323631
635	-0.303303	-0.354937
636	-0.280745	-0.391412
637	-0.26455	-0.4324
638	-0.254767	-0.477105
639	-0.251273	-0.52462
640	-0.253777	-0.573938
641	-0.261834	-0.623986
642	-0.274859	-0.673643
643	-0.292146	-0.721778
644	-0.312891	-0.767273
645	-0.336215	-0.809058
646	-0.361186	-0.846138
647	-0.386849	-0.877621
648	-0.41225	-0.902748
649	-0.436459	-0.920906
650	-0.458594	-0.931656
651	-0.477847	-0.934744
652	-0.493496	-0.930108
653	-0.504927	-0.917888
654	-0.511648	-0.898421
655	-0.513292	-0.872237
656	-0.50963	-0.840046
657	-0.500572	-0.802721
658	-0.486163	-0.761277
659	-0.466578	-0.716843
660	-0.442119	-0.670634
661	-0.413198	-0.623913
662	-0.380327	-0.57796
663	-0.344101	-0.534031
664	-0.305182	-0.493328
665	-0.264282	-0.456957
666	-0.222142	-0.425899
667	-0.179519	-0.400982
668	-0.137165	-0.382852
669	-0.0958118	-0.371961
670	-0.056156	-0.368546
671	-0.0188439	-0.372624
672	0.0155396	-0.383995
673	0.0464821	-0.402238
674	0.0735523	-0.426733
675	0.0964069	-0.456669
676	0.114795	-0.49107
677	0.128562	-0.528822
678	0.137648	-0.568703
679	0.142091	-0.609413
680	0.14202	-0.649615
681	0.137652	-0.687966
682	0.129291	-0.723156
683	0.117315	-0.753924
684	0.102171	-0.779095
685	0.0843645	-0.797598
686	0.064449	-0.808498
687	0.0430132	-0.811023
688	0.0206677	-0.804593
689	-0.00196855	-0.788842
690	-0.0242791	-0.763593
691	-0.0456552	-0.728748
692	-0.0655212	-0.684409
693	-0.0833534	-0.630998
694	-0.0986896	-0.569271
695	-0.111138	-0.500366
696	-0.120381	-0.425741
697	-0.126174	-0.347123
698	-0.128347	-0.266448
699	-0.126808	-0.185786
700	-0.121536	-0.107247
701	-0.112589	-0.0328973
702	-0.100103	0.0353336
703	-0.0842965	0.095734
704	-0.0654765	0.146877
705	-0.0440403	0.187684
706	-0.0204791	0.217475
707	0.00462274	0.235993
708	0.0305896	0.243435
709	0.0566579	0.240473
710	0.0820011	0.228188
711	0.10576	0.208006
712	0.127116	0.181473
713	0.145351	0.150095
714	0.159901	0.115239
715	0.170373	0.0780796
716	0.176553	0.039633
717	0.178358	0.000861077
718	0.1758	-0.0372656
719	0.168896	-0.0736256
720	0.157694	-0.107047
721	0.142226	-0.136265
722	0.122388	-0.159787
723	0.0980189	-0.176105
724	0.0689343	-0.183808
725	0.0349667	-0.181685
726	-0.00398783	-0.168838
727	-0.047949	-0.144725
728	-0.096747	-0.109332
729	-0.149958	-0.0632533
730	-0.207012	-0.00746411
731	-0.267224	0.0567487
732	-0.329814	0.127839
733	-0.393937	0.204056
734	-0.458703	0.283498
735	-0.523198	0.36417
736	-0.586511	0.444042
737	-0.647732	0.521098
738	-0.705922	0.593381
739	-0.760088	0.659032
740	-0.809203	0.716344
741	-0.852243	0.763811
742	-0.88833	0.800183
743	-0.916738	0.824492
744	-0.937033	0.836093
745	-0.949099	0.834671
746	-0.953076	0.820231
747	-0.949351	0.793089
748	-0.938545	0.753854
749	-0.921489	0.703403
750	-0.899198	0.642857
751	-0.872831	0.573539
752	-0.843661	0.496942
753	-0.813024	0.414686
754	-0.782284	0.328476
755	-0.752781	0.24006
756	-0.725798	0.151187
757	-0.702513	0.0635675
758	-0.683969	-0.0211652
759	-0.67104	-0.101489
760	-0.664409	-0.176025
761	-0.664542	-0.243563
762	-0.671684	-0.303084
763	-0.685849	-0.353778
764	-0.706824	-0.395059
765	-0.734177	-0.426566
766	-0.767271	-0.448172
767	-0.805288	-0.459974
768	-0.847252	-0.462292
769	-0.89206	-0.455652
770	-0.938519	-0.440772
771	-0.98538	-0.418543
772	-1.03138	-0.390004
773	-1.07526	-0.356317
774	-1.11585	-0.318743
775	-1.15204	-0.278609
776	-1.18286	-0.237281
777	-1.20749	-0.196133
778	-1.22528	-0.15652
779	-1.23578	-0.119747
780	-1.23874	-0.0870446
781	-1.2341	-0.0595415
782	-1.22204	-0.0382438
783	-1.20291	-0.0240141
784	-1.17726	-0.0175546
785	-1.1458	-0.019393
786	-1.10939	-0.0298724
787	-1.06901	-0.0491446
788	-1.0257	-0.0771671
789	-0.980586	-0.113704
790	-0.934797	-0.158331
791	-0.889452	-0.210445
792	-0.845627	-0.269273
793	-0.804324	-0.333893
794	-0.766444	-0.403249
795	-0.732763	-0.476177
796	-0.703913	-0.551425
797	-0.68037	-0.627684
798	-0.66244	-0.703615
799	-0.650258	-0.777876
800	-0.643784	-0.849154
801	-0.642815	-0.916195
802	-0.646986	-0.977829
803	-0.655789	-1.033
804	-0.668591	-1.08079
805	-0.684653	-1.12043
806	-0.703151	-1.15134
807	-0.723207	-1.17314
808	-0.743906	-1.18564
809	-0.76433	-1.18885
810	-0.783577	-1.18301
811	-0.80079	-1.16856
812	-0.815174	-1.14613
813	-0.826023	-1.11654
814	-0.832729	-1.08076
815	-0.834802	-1.03994
816	-0.83188	-0.995307
817	-0.823732	-0.948211
818	-0.810262	-0.900044
819	-0.791512	-0.852224
820	-0.76765	-0.806164
821	-0.73897	-0.763227
822	-0.705875	-0.724701
823	-0.668866	-0.691757
824	-0.628525	-0.665425
825	-0.585504	-0.646566
826	-0.540496	-0.635842
827	-0.494227	-0.633706
828	-0.447431	-0.640383
829	-0.400836	-0.655864
830	-0.355144	-0.679903
831	-0.311017	-0.712027
832	-0.269061	-0.751538
833	-0.229817	-0.797536
834	-0.193746	-0.848942
835	-0.161225	-0.904518
836	-0.13254	-0.962907
837	-0.107883	-1.02266
838	-0.0873478	-1.08228
839	-0.0709351	-1.14026
840	-0.0585527	-1.19511
841	-0.0500217	-1.24542
842	-0.0450823	-1.28987
843	-0.0434024	-1.32729
844	-0.0445864	-1.35667
845	-0.0481858	-1.3772
846	-0.0537101	-1.38831
847	-0.0606379	-1.38962
848	-0.0684292	-1.38103
849	-0.0765366	-1.36269
850	-0.0844171	-1.33499
